symbol,date,time,expirationDate,mid,bid,ask,strike,days,typo,oi,iv_traded,delta_bs,gamma_bs,theta_bs,volume,prem_ivalue,moneyness,iv_bs,vanna_bs,merton,gex,vex
EOG230421C00116000,2023-04-07,10:00:00,2023-04-21,6.4,6.2,6.6,116.0,14,c,253,0.3103791676673907,0.9480850484225201,0.026103724106718573,-0.02055639586544533,2,0.07481954841576943,-0.053620689655172304,0.16627527371302428,4.512525283058217e-15,7.310674817722089,0.09865237625647776,7.537224636892838e-17
EOG230421C00117500,2023-04-07,10:00:00,2023-04-21,5.25,5.1,5.4,117.5,14,c,182,0.311855669001245,0.8389998915951491,0.04812045792057518,-0.04892224089767794,3,0.4248195484157691,-0.040170212765957336,0.20971297561641852,5.724795479189405e-06,6.1828597937912955,0.1308234802240149,6.878641151731665e-08
EOG230421C00119000,2023-04-07,10:00:00,2023-04-21,4.2,4.0,4.4,119.0,14,c,869,0.3104449226422299,0.7381052226166585,0.05953817615811374,-0.0680752133669289,2,0.8748195484157693,-0.027058823529411802,0.22632861185022704,0.005756314116092122,5.15709050502612,0.7728582761418137,0.00033024446771042214
EOG230421C00120000,2023-04-07,10:00:00,2023-04-21,3.55,3.4,3.7,120.0,14,c,517,0.3058502191929035,0.6708443781940243,0.0648674438874508,-0.07642103100974529,21,1.224819548415769,-0.01849999999999996,0.2309751134214077,0.05946116837119683,4.535065351919936,0.5009586577959707,0.002029529046418987
EOG230421C00121000,2023-04-07,10:00:00,2023-04-21,2.975,2.85,3.1,121.0,14,c,595,0.3034708803506895,0.601013961794794,0.06785119853969235,-0.08259091958353615,117,1.6498195484157692,-0.010082644628099269,0.23575471689097516,0.17896557889509832,3.9648023820079756,0.6030579513632385,0.007030039495434241
EOG230421C00122500,2023-04-07,10:00:00,2023-04-21,2.2750000000000004,2.2,2.35,122.5,14,c,229,0.3074021722642365,0.49740449170654344,0.06730927582410118,-0.08802866036350476,9,2.4498195484157694,0.0022857142857143353,0.245662534900877,-0.024017771899594455,3.2080130729015055,0.23024751896299409,-0.0003631110688957227
EOG230421C00124000,2023-04-07,10:00:00,2023-04-21,1.675,1.6,1.75,124.0,14,c,1817,0.3091260560091813,0.4005283578346952,0.064041213165833,-0.08613953323692214,20,3.349819548415769,0.014354838709677464,0.2501993703945867,-0.18478317594124807,2.567797344446901,1.7381971618474126,-0.02216606713075081
EOG230421C00125000,2023-04-07,10:00:00,2023-04-21,1.325,1.25,1.4,125.0,14,c,675,0.3041663607148939,0.3392570533101269,0.060650462003764005,-0.08118774929901207,20,3.9998195484157693,0.022240000000000038,0.25029148708233423,-0.0747573293375022,2.202779233763621,0.6115365869040539,-0.0033314157952974597
EOG230421C00126000,2023-04-07,10:00:00,2023-04-21,1.075,1.0,1.15,126.0,14,c,355,0.3077320674438319,0.2867218959093032,0.055249224928388685,-0.07663344952672779,10,4.749819548415769,0.030000000000000027,0.25554892307819543,-0.015344540736014073,1.8839370241095665,0.2929807602832268,-0.00035962803262152535
EOG230421C00127500,2023-04-07,10:00:00,2023-04-21,0.75,0.7,0.8,127.5,14,c,888,0.3093493292723295,0.2157885470394305,0.04689098398236169,-0.06617439895618771,2,5.924819548415769,0.04141176470588237,0.2589766267668336,-0.0004370390512104764,1.484540398680502,0.6219949674258951,-2.5621496953174464e-05
EOG230421C00129000,2023-04-07,10:00:00,2023-04-21,0.525,0.45,0.6,129.0,14,c,450,0.3142698236775884,0.1601900404512635,0.03820163614220995,-0.05562729596848781,1,7.199819548415769,0.05255813953488375,0.26437003672531784,-4.716316074140392e-06,1.1679306870303179,0.2567905493075802,-1.4011566940879327e-07
EOG230421C00130000,2023-04-07,10:00:00,2023-04-21,0.4,0.35,0.45,130.0,14,c,807,0.3148564659791713,0.12798695433103024,0.03267310054011485,-0.047695353928496,2,8.07481954841577,0.05984615384615388,0.26565893030778825,-1.090563333888136e-07,0.9960139556119074,0.393865954796282,-5.810262001611812e-09
EOG230421C00131000,2023-04-07,10:00:00,2023-04-21,0.35,0.3,0.4,131.0,14,c,550,0.325863478801723,0.1105822218127217,0.028173046211499297,-0.044753038065883044,25,9.024819548415769,0.06702290076335882,0.27788930647544013,-7.906801600789664e-09,0.8507391313833387,0.231462721879414,-2.871010763338896e-10
EOG230421C00132500,2023-04-07,10:00:00,2023-04-21,0.25,0.2,0.3,132.5,14,c,376,0.3358030341701031,0.08173605423081043,0.021982074955850806,-0.0363884891603356,5,10.424819548415769,0.07758490566037735,0.2851151026522888,-2.8747790427122233e-11,0.6746237017638412,0.12346421177496193,-7.136143994527605e-13
EOG230421C00134000,2023-04-07,10:00:00,2023-04-21,0.175,0.1,0.25,134.0,14,c,897,0.3396051264234175,0.059328403727577916,0.0168329408387069,-0.028714611847814348,10,11.84981954841577,0.08791044776119405,0.2909749607598074,-5.5631684179935776e-14,0.5387113937723013,0.22554697088441908,-3.2944729084534693e-15
EOG230421C00135000,2023-04-07,10:00:00,2023-04-21,0.125,0.05,0.2,135.0,14,c,3,0.3372635418299537,0.044587709460417596,0.01348836578526913,-0.022545483376820413,1,12.799819548415769,0.09466666666666668,0.28935422369987873,-1.7722582459144335e-16,0.4656891878101726,0.0006044566339806089,-3.510100490693035e-20
EOG230421C00136000,2023-04-07,10:00:00,2023-04-21,0.15,0.1,0.2,136.0,14,c,397,0.3681814412515425,0.048271863966159456,0.013102639023210294,-0.02639751217881335,2,13.82481954841577,0.1013235294117647,0.31747293735941773,-8.137187039090021e-16,0.4039706665134661,0.07770229423162679,-2.1327310661397275e-17
EOG230421C00137500,2023-04-07,10:00:00,2023-04-21,0.15,0.05,0.25,137.5,14,c,204,0.3976344075136619,0.0451720731022523,0.011486068111909997,-0.026984844209876846,1,15.32481954841577,0.11112727272727274,0.3433760885879102,-1.9507851398918268e-16,0.3283911023514983,0.03500145623128091,-2.6273074406274063e-18
EOG230421P00100000,2023-04-07,10:00:00,2023-04-21,0.1999999999999999,0.05,0.35,100.0,14,p,20,0.6372857800389126,-0.03465512996156661,0.0054718811781651056,-0.036119286247316584,1,22.52518045158423,-0.22219999999999995,0.581046629436489,4.749393443153416e-19,0.0268962435420058,-0.0016347494975300471,-6.27103801745154e-22
EOG230421P00101000,2023-04-07,10:00:00,2023-04-21,0.15,0.05,0.25,101.0,14,p,507,0.5848965058111484,-0.029374293044129307,0.005246658735802434,-0.028510521400930522,1,21.47518045158423,-0.21009900990099006,0.5286510401044212,1.6251545854459236e-20,0.03383442307628418,-0.03973519374387239,-5.439687193697509e-22
EOG230421P00102500,2023-04-07,10:00:00,2023-04-21,0.15,0.05,0.25,102.5,14,p,119,0.5439608230233275,-0.03121953958084428,0.005901909181649234,-0.028066288801670544,15,19.97518045158423,-0.19239024390243897,0.49429461529936297,6.279405607606207e-20,0.04739609069670146,-0.010491172851236161,-4.933291608572218e-22
EOG230421P00103000,2023-04-07,10:00:00,2023-04-21,0.725,0.05,1.4,103.0,14,p,23,0.7433668266534814,-0.08969742222106336,0.009821685710287298,-0.09225017663586244,3,20.050180451584232,-0.18660194174757283,0.6841024491131801,6.718095230316791e-11,0.052957824286815065,-0.003374414492119954,-1.0201059517009554e-13
EOG230421P00104000,2023-04-07,10:00:00,2023-04-21,0.125,0.05,0.2,104.0,14,p,1092,0.491525033283243,-0.029243860943772154,0.0062042056767075415,-0.023887196742488043,1,18.45018045158423,-0.17519230769230765,0.44541077263738627,1.75887729445794e-20,0.06603613789994756,-0.10120299935534384,-1.2680298308457232e-21
EOG230421P00105000,2023-04-07,10:00:00,2023-04-21,0.125,0.05,0.2,105.0,14,p,28,0.4650088630401052,-0.030619744958811784,0.006782151932283043,-0.02360006428591903,3,17.45018045158423,-0.16399999999999992,0.42329044551622513,4.882502890540749e-20,0.08229860181836415,-0.0028366784188954192,-9.025511627690314e-23
EOG230421P00106000,2023-04-07,10:00:00,2023-04-21,0.15,0.1,0.2,106.0,14,p,473,0.4506803782081864,-0.0365516994570908,0.008005589247073175,-0.026884881666407442,3,16.47518045158423,-0.15301886792452835,0.41487918393702283,2.024590775244273e-18,0.10263510433682023,-0.05656385534529182,-6.322221161578268e-20
EOG230421P00107500,2023-04-07,10:00:00,2023-04-21,0.2,0.15,0.25,107.5,14,p,175,0.435333650112564,-0.04805914773492459,0.010273428169838006,-0.032857585473766715,2,15.02518045158423,-0.13693023255813963,0.4034741115285399,5.756159112474322e-16,0.14343812818889048,-0.026855793954141113,-6.6503136512632346e-18
EOG230421P00108000,2023-04-07,10:00:00,2023-04-21,0.3999999999999999,0.1,0.7,108.0,14,p,4,0.4955785281099314,-0.07741347131101639,0.013113213709337046,-0.05494313149522162,1,14.725180451584231,-0.1316666666666666,0.45869802870710313,6.2102643077571006e-12,0.1605724292958081,-0.0007835264993649334,-1.639990623581999e-15
EOG230421P00109000,2023-04-07,10:00:00,2023-04-21,0.25,0.2,0.3,109.0,14,p,535,0.4201520887392216,-0.06040524502275574,0.012848554015731928,-0.03793257364318567,1,13.575180451584231,-0.1212844036697247,0.3866161114164402,5.879418709055905e-14,0.20164035534382693,-0.10268159246755709,-2.0766316159291425e-15
EOG230421P00110000,2023-04-07,10:00:00,2023-04-21,0.325,0.25,0.4,110.0,14,p,59,0.4148775043413412,-0.07560614044189728,0.015322067512535398,-0.04523893683225261,4,12.65018045158423,-0.11109090909090913,0.3855806342773458,4.70549338608564e-12,0.25384022200481254,-0.013503736098694324,-1.8328565192838893e-14
EOG230421P00111000,2023-04-07,10:00:00,2023-04-21,0.4,0.35,0.45,111.0,14,p,253,0.4055872907383696,-0.09107548258436293,0.017878396767478932,-0.05150806515486733,3,11.725180451584231,-0.10108108108108116,0.38009725283486295,1.621790309688422e-10,0.3201006544985533,-0.06756684669042969,-2.708859698570676e-12
EOG230421P00112500,2023-04-07,10:00:00,2023-04-21,0.55,0.5,0.6,112.5,14,p,4284,0.4018915361513323,-0.12018328471476436,0.022236001632203184,-0.06222699813807375,2,10.375180451584232,-0.08640000000000003,0.3735464545723039,2.530120671988485e-08,0.4535164613138686,-1.4229535326110327,-7.155862496417854e-09
EOG230421P00113000,2023-04-07,10:00:00,2023-04-21,0.6,0.5,0.7,113.0,14,p,6,0.3961392946165323,-0.13020174513750926,0.02377566693190225,-0.06517418904165728,1,9.92518045158423,-0.08159292035398225,0.3694427490259638,1.0320077539713245e-07,0.50904674861812,-0.002130926730945703,-4.087949295160067e-11
EOG230421P00114000,2023-04-07,10:00:00,2023-04-21,0.75,0.7,0.8,114.0,14,p,289,0.3882862482641723,-0.1564452450288134,0.02704981421963737,-0.0736580510865219,2,9.075180451584231,-0.07210526315789467,0.3676136712007104,2.2553185583110496e-06,0.6399551191999191,-0.1167741428661029,-4.303056277065302e-08
EOG230421P00115000,2023-04-07,10:00:00,2023-04-21,0.925,0.85,1.0,115.0,14,p,50,0.3849459978728864,-0.18564426158847458,0.030376976515311682,-0.08186275306898805,6,8.250180451584232,-0.06278260869565222,0.3652322394081098,3.353729445274831e-05,0.801148251479144,-0.02268815123994522,-1.1070553062877596e-07
EOG230421P00116000,2023-04-07,10:00:00,2023-04-21,1.125,1.05,1.2,116.0,14,p,618,0.3841228321678576,-0.2176450954256226,0.0337130198624358,-0.08941971325177578,82,7.450180451584231,-0.053620689655172304,0.3619952447074593,0.0003415231199286267,0.9972608941015902,-0.3112222873658025,-1.3934130511919066e-05
EOG230421P00117500,2023-04-07,10:00:00,2023-04-21,1.525,1.45,1.6,117.5,14,p,322,0.3755239834052338,-0.2740306981602325,0.03818636197028269,-0.10132824555343833,13,6.350180451584231,-0.040170212765957336,0.3617257584279459,0.006319948712541446,1.3666554688406403,-0.1836744361901673,-0.0001343509418238186
EOG230421P00119000,2023-04-07,10:00:00,2023-04-21,1.95,1.85,2.05,119.0,14,p,684,0.3690916718661887,-0.3332990314927953,0.04261365028401798,-0.10813922011452393,1,5.275180451584231,-0.027058823529411802,0.3537844475768879,0.043551569215450885,1.8380957787453056,-0.4354009757074665,-0.001966668669215205
EOG230421P00120000,2023-04-07,10:00:00,2023-04-21,2.4,2.3,2.5,120.0,14,p,29,0.369556748381535,-0.3798037969441115,0.043690642241855926,-0.1155686496139623,10,4.725180451584231,-0.01849999999999996,0.36126994308941585,0.09705939424950037,2.214210358085684,-0.01892652947548192,-0.0001858261649478533
EOG230421P00121000,2023-04-07,10:00:00,2023-04-21,2.825,2.7,2.95,121.0,14,p,522,0.3670732682062448,-0.4247500228323986,0.045024199097909445,-0.11857134468890695,1,4.150180451584231,-0.010082644628099269,0.3607814932601598,0.12207057475621534,2.642087120620285,-0.3510759324421943,-0.004206808880643729
EOG230421P00122500,2023-04-07,10:00:00,2023-04-21,3.6,3.5,3.7,122.5,14,p,1147,0.3676728721631244,-0.49303687945094765,0.04524251408177804,-0.12177929909365703,6,3.425180451584231,0.0022857142857143353,0.36543999079733325,0.002178631145278847,3.382507410183658,-0.7751659844473319,-0.0001649751057698848
EOG230421P00124000,2023-04-07,10:00:00,2023-04-21,4.550000000000001,4.4,4.7,124.0,14,p,181,0.3752622282697553,-0.557182870618611,0.043303407100125924,-0.12400918844078035,10,2.8751804515842316,0.014354838709677464,0.37784777175010753,-0.12862242795053672,4.239501280398891,-0.11708067066419259,0.0015369741661378667
EOG230421P00125000,2023-04-07,10:00:00,2023-04-21,5.25,5.1,5.4,125.0,14,p,9,0.3861493712085571,-0.5960012853688301,0.04137595728259669,-0.12438860247138805,16,2.575180451584231,0.022240000000000038,0.38786904652452253,-0.12365492094870012,4.872622902162175,-0.005562565309596883,7.347256524819069e-05
EOG230421P00126000,2023-04-07,10:00:00,2023-04-21,5.949999999999999,5.8,6.1,126.0,14,p,98,0.3830637852145154,-0.6332154202591145,0.03958046364438417,-0.12220485803605641,9,2.27518045158423,0.030000000000000027,0.39403113177658033,-0.08030214502164332,5.551920424954682,-0.05794173715485672,0.0005195466054078794
EOG230421P00127500,2023-04-07,10:00:00,2023-04-21,7.1,6.9,7.3,127.5,14,p,119,0.3917316068966888,-0.6819568822270305,0.03622654913826295,-0.11885342519629916,2,1.9251804515842306,0.04141176470588237,0.4077363865857832,-0.02635042385200481,6.649733398195459,-0.0643959398756985,0.00020701692643322034
EOG230421P00129000,2023-04-07,10:00:00,2023-04-21,8.399999999999999,8.2,8.6,129.0,14,p,52,0.4083830518150707,-0.7183556661432,0.032302866177502665,-0.11860273543802968,3,1.7251804515842295,0.05255813953488375,0.43261928359937873,-0.007265524806069509,7.830333285215117,-0.025091634958056212,2.4942594319560802e-05
EOG230421P00130000,2023-04-07,10:00:00,2023-04-21,9.3,9.1,9.5,130.0,14,p,1,0.4203009594274662,-0.7382438564600413,0.029890253809838896,-0.1186800818065663,1,1.6251804515842316,0.05984615384615388,0.4506992591781426,-0.00299215086199527,8.656556286243267,-0.0004464924932184387,1.975398757137314e-07
EOG230421P00131000,2023-04-07,10:00:00,2023-04-21,10.25,10.0,10.5,131.0,14,p,197,0.4407359570478892,-0.7531652659872989,0.02757693593480326,-0.12063724851986812,3,1.575180451584231,0.06702290076335882,0.4736129418886555,-0.0013771628279891355,9.509421194461263,-0.08115154548236336,1.7911122642504657e-05
EOG230421P00132500,2023-04-07,10:00:00,2023-04-21,11.6,11.4,11.8,132.5,14,p,490,0.4583457249367059,-0.7783322462834974,0.024835937146860942,-0.11804397931492261,1,1.4251804515842306,0.07758490566037735,0.4952911037258847,-0.00031524802880271115,10.830515363511607,-0.18178631699304704,1.0198111344462204e-05
EOG230421P00134000,2023-04-07,10:00:00,2023-04-21,13.1,12.9,13.3,134.0,14,p,1030,0.5012774879030101,-0.790429293110595,0.022237041239492328,-0.12334608484928822,1,1.4251804515842306,0.08791044776119405,0.5353500819496544,-0.0001324748835250652,12.191812654189906,-0.34213600892878987,9.00828381679941e-06
EOG230421P00135000,2023-04-07,10:00:00,2023-04-21,14.05,13.8,14.3,135.0,14,p,0,0.5156052048215196,-0.8010014670906784,0.020837694485464908,-0.12335889565836666,5,1.3751804515842316,0.09466666666666668,0.5538446847149548,-6.029785690773467e-05,13.116930180674338,-0.0,0.0
EOG230421P00136000,2023-04-07,10:00:00,2023-04-21,15.05,14.8,15.3,136.0,14,p,419,0.5388755929191704,-0.8073020023313227,0.019543075620021,-0.1263633440623675,2,1.3751804515842316,0.1013235294117647,0.579037256951541,-3.574213790648565e-05,14.053351391824194,-0.12231831624355229,9.887029700298513e-07
EOG230421P00137500,2023-04-07,10:00:00,2023-04-21,16.6,16.4,16.8,137.5,14,p,152,0.5860562967396665,-0.8122916480830966,0.01785359902584105,-0.13402875451408036,10,1.4251804515842323,0.11112727272727274,0.6236254487596876,-2.235529659207423e-05,15.474981426332068,-0.04053721640799877,2.2433411032101792e-07
EOG230421P00139000,2023-04-07,10:00:00,2023-04-21,18.0,17.7,18.3,139.0,14,p,36,0.5952619348295695,-0.8264663811889505,0.016464145318195733,-0.13089135422856657,10,1.325180451584231,0.12071942446043171,0.6435260842456844,-6.413371624528438e-06,16.91244918779206,-0.008853729519648221,1.5242640132034755e-08
EOG230421P00140000,2023-04-07,10:00:00,2023-04-21,19.0,18.7,19.3,140.0,14,p,1,0.6179648724859771,-0.8308393801533143,0.015633157381955698,-0.13328635818817247,1,1.325180451584231,0.127,0.6666826382843916,-4.132532207384066e-06,17.877590164244772,-0.00023352385900610927,2.728271187787894e-10
EOG230421P00141000,2023-04-07,10:00:00,2023-04-21,19.95,19.7,20.2,141.0,14,p,106,0.6281039623787762,-0.8382711802632059,0.014862861874576083,-0.13179753738757682,1,1.2751804515842302,0.1331914893617021,0.6809921210169474,-1.963932380535405e-06,18.8471387497061,-0.02353384375648803,1.3743700596318885e-08
EOG230421P00142500,2023-04-07,10:00:00,2023-04-21,21.55,21.3,21.8,142.5,14,p,272,0.6864023332631891,-0.8371713808536185,0.013900421009793718,-0.14267984909935194,2,1.3751804515842316,0.14231578947368417,0.7313879739712643,-2.0450138707840294e-06,20.308216855160044,-0.05647827412366702,3.672285617400228e-08
EOG230428C00113000,2023-04-07,10:00:00,2023-04-28,9.45,9.1,9.8,113.0,21,c,361,0.3435112351714596,0.9568052550629425,0.015611135442128443,-0.01754106387146237,5,0.07219538380081403,-0.08159292035398225,0.1933406658064186,2.5096021947891186e-11,10.266440669057545,0.08418335935129644,5.981131861117051e-13
EOG230428C00114000,2023-04-07,10:00:00,2023-04-28,8.55,8.3,8.8,114.0,21,c,64,0.3384501450080391,0.9268668376862799,0.02267159517899131,-0.024860977649534988,5,0.17219538380081545,-0.07210526315789467,0.20413871308399853,3.0540850939351214e-08,9.455957597153976,0.021674376395425382,1.2904238968171274e-10
EOG230428C00115000,2023-04-07,10:00:00,2023-04-28,7.75,7.5,8.0,115.0,21,c,43,0.3391064075918591,0.879833959752041,0.030119293459307528,-0.03609873151748744,5,0.37219538380081474,-0.06278260869565222,0.22312623641563795,1.345459194714857e-05,8.676143488859415,0.019346294487686388,3.819533084224038e-08
EOG230428C00116000,2023-04-07,10:00:00,2023-04-28,7.0,6.8,7.2,116.0,21,c,32,0.3347230175037741,0.8311584464708588,0.03578972121331958,-0.04646851610247271,12,0.6221953838008147,-0.053620689655172304,0.23698395853470183,0.0005569986626154597,7.929759521391231,0.017107748319881166,1.176726192340728e-06
EOG230428C00117000,2023-04-07,10:00:00,2023-04-28,6.3,6.1,6.5,117.0,21,c,5,0.333575365640414,0.7811552673716804,0.040131668566090184,-0.05578776332633861,1,0.9221953838008146,-0.0446153846153845,0.2480434851777682,0.006675053168011643,7.219309746113673,0.0029973798263953633,2.203413587763232e-06
EOG230428C00118000,2023-04-07,10:00:00,2023-04-28,5.65,5.5,5.8,118.0,21,c,33,0.3375737521884213,0.7303568028158569,0.04334669593042406,-0.06389882920627077,12,1.272195383800815,-0.035762711864406826,0.257321589822557,0.03559542221641042,6.546952375732087,0.02136753863791998,7.754956717166174e-05
EOG230428C00119000,2023-04-07,10:00:00,2023-04-28,4.949999999999999,4.8,5.1,119.0,21,c,27,0.3288843116133814,0.6847093127621218,0.046913989573127424,-0.06790633938960511,3,1.572195383800814,-0.027058823529411802,0.2558742687834699,0.09816613129148676,5.914423126633333,0.018921287728902853,0.0001749833511955846
EOG230428C00120000,2023-04-07,10:00:00,2023-04-28,4.35,4.2,4.5,120.0,21,c,89,0.3242752805255946,0.6339077562227402,0.049063399014670495,-0.07231902222897713,10,1.9721953838008144,-0.01849999999999996,0.2591729683396425,0.1829184832163517,5.322975430243855,0.06522771986871581,0.0010747782961192131
EOG230428C00121000,2023-04-07,10:00:00,2023-04-28,3.85,3.7,4.0,121.0,21,c,29,0.3288298277907331,0.5815565019085422,0.04956008933021394,-0.07666048607030795,2,2.472195383800815,-0.010082644628099269,0.266452282335158,0.19861078789459538,4.773341055037672,0.02146913946293974,0.0003802525383256672
EOG230428C00122000,2023-04-07,10:00:00,2023-04-28,3.3,3.2,3.4,122.0,21,c,94,0.3250685917128171,0.5312119317673503,0.05080293538739511,-0.07726266461733378,7,2.9221953838008146,-0.001803278688524479,0.2647688250139514,0.0923606678332176,4.26571312420687,0.07133476236952775,0.0005731736381265886
EOG230428C00123000,2023-04-07,10:00:00,2023-04-28,2.85,2.75,2.95,123.0,21,c,5,0.3209912941601699,0.4808226742720523,0.050430715554661276,-0.07780128517849416,4,3.472195383800815,0.006341463414634152,0.26729855590689217,-0.09052071738847456,3.7997518440029006,0.0037666016598659276,-2.98805977491942e-05
EOG230428C00124000,2023-04-07,10:00:00,2023-04-28,2.4,2.3,2.5,124.0,21,c,31,0.3167977706011438,0.43058428647066993,0.05005741051444801,-0.07593748065109818,1,4.022195383800815,0.014354838709677464,0.2655653306783423,-0.21888109442342238,3.374611647903343,0.023180064082835985,-0.00044796206196278944
EOG230428C00125000,2023-04-07,10:00:00,2023-04-28,2.05,1.95,2.15,125.0,21,c,11,0.3213758440213395,0.3835222040825981,0.048153789760085886,-0.07426052449962262,1,4.672195383800815,0.022240000000000038,0.2683262792250811,-0.21884114022103232,2.9889870658034154,0.007912390561535506,-0.00015892526479308435
EOG230428C00126000,2023-04-07,10:00:00,2023-04-28,1.75,1.65,1.85,126.0,21,c,12,0.3186651210717742,0.3397487023561907,0.045636380481273164,-0.07184379076811442,11,5.372195383800815,0.030000000000000027,0.2716626695917886,-0.1466029879198393,2.6411735619375047,0.008180446281459837,-0.00011614361981856181
EOG230428C00127000,2023-04-07,10:00:00,2023-04-28,1.4500000000000002,1.35,1.55,127.0,21,c,14,0.3157480979709098,0.2964375282068388,0.043169997463454735,-0.06744558441239934,15,6.072195383800815,0.037637795275590524,0.2711416497461776,-0.07042615778265525,2.329138919179387,0.00902806375992886,-6.50928550592737e-05
EOG230428C00129000,2023-04-07,10:00:00,2023-04-28,1.0,0.9,1.1,129.0,21,c,39,0.3168624479873002,0.22203122015062582,0.036821028827072055,-0.05814822577719958,36,7.622195383800815,0.05255813953488375,0.27367585995436755,-0.007604878941541257,1.803103852188631,0.021450878593067546,-1.958069946954563e-05
EOG230428C00130000,2023-04-07,10:00:00,2023-04-28,0.825,0.75,0.9,130.0,21,c,58,0.3155807159066181,0.19022047137046139,0.03341683622704039,-0.05312355302236638,11,8.447195383800814,0.05984615384615388,0.27513503077329365,-0.0017961190871145425,1.58409861387898,0.02895195416571499,-6.877560370718112e-06
EOG230428C00134000,2023-04-07,10:00:00,2023-04-28,0.375,0.3,0.45,134.0,21,c,25,0.3211404800726362,0.09787989958442711,0.02066818704349327,-0.03420888509308739,25,11.997195383800815,0.08791044776119405,0.28306545390635207,-1.1044294538359336e-06,0.9422869314162552,0.007718394114402538,-1.822843057617857e-09
EOG230428C00135000,2023-04-07,10:00:00,2023-04-28,0.3,0.25,0.35,135.0,21,c,44,0.3242304931587356,0.0809745163791592,0.01790135579382568,-0.029654242011047993,44,12.922195383800815,0.09466666666666668,0.2838167154020486,-1.0597270521780861e-07,0.8284977234307891,0.011765845996957115,-3.078349933759134e-10
EOG230428P00098000,2023-04-07,10:00:00,2023-04-28,0.175,0.05,0.3,98.0,21,p,32,0.5337435084530258,-0.029267772571983652,0.004492699230973507,-0.022346512766580534,8,24.552804616199186,-0.2471428571428571,0.5025183425378218,7.204875928536769e-14,0.03958746664022436,-0.0021475430686454756,-1.522116081547504e-16
EOG230428P00099000,2023-04-07,10:00:00,2023-04-28,0.175,0.05,0.3,99.0,21,p,18,0.5114709817496358,-0.030338579254075848,0.004814560383425981,-0.022137132581047964,3,23.552804616199186,-0.2345454545454546,0.48311200379922276,1.2393848908203678e-13,0.049486365587086356,-0.0012945347167143087,-1.472821082408826e-16
EOG230428P00100000,2023-04-07,10:00:00,2023-04-28,0.175,0.05,0.3,100.0,21,p,53,0.4894181032716293,-0.03148535437820649,0.0051712759999156255,-0.02191871670890755,2,22.552804616199186,-0.22219999999999995,0.4638118596130881,2.167186721916206e-13,0.06168173011421126,-0.004094097167513435,-7.583042506334699e-16
EOG230428P00102000,2023-04-07,10:00:00,2023-04-28,0.2,0.1,0.3,102.0,21,p,6,0.4555067366548571,-0.03738182262797013,0.006330427144429773,-0.023791697565870185,3,20.577804616199185,-0.19823529411764707,0.43628354393777463,2.479133577876429e-12,0.09519084155936557,-0.0005673732080368771,-9.820248271670645e-16
EOG230428P00103000,2023-04-07,10:00:00,2023-04-28,0.25,0.15,0.35,103.0,21,p,5,0.4530547998589537,-0.04538866480627707,0.007418109836954123,-0.027897934999838864,3,19.627804616199185,-0.18660194174757283,0.4357437092068718,3.491995726627007e-11,0.11796098401898865,-0.000554048549928945,-1.15269656118006e-14
EOG230428P00104000,2023-04-07,10:00:00,2023-04-28,0.25,0.2,0.3,104.0,21,p,6,0.4316561982423411,-0.04733207689964353,0.0080401449709111,-0.027532711152722683,1,18.627804616199185,-0.17519230769230765,0.41579275646015557,6.442395815228666e-11,0.14599606275353025,-0.0007206090112325755,-2.5519369724365434e-14
EOG230428P00105000,2023-04-07,10:00:00,2023-04-28,0.3,0.25,0.35,105.0,21,p,50,0.4293049020190235,-0.055828687089312656,0.00925986535171841,-0.031159207144006773,10,17.677804616199186,-0.16399999999999992,0.41167351418661063,5.876092673325772e-10,0.18049255145012574,-0.006916067682227005,-1.9396792974487654e-12
EOG230428P00106000,2023-04-07,10:00:00,2023-04-28,0.35,0.3,0.4,106.0,21,p,31,0.4244513101739809,-0.06454661185723021,0.010538854184893864,-0.03442696439691656,5,16.727804616199187,-0.15301886792452835,0.4052272923745566,3.99042082899575e-09,0.222882914771889,-0.0048802227852955855,-8.16679552596807e-12
EOG230428P00107000,2023-04-07,10:00:00,2023-04-28,0.4,0.35,0.45,107.0,21,p,16,0.4110426759551938,-0.07358616195252965,0.011903975018490165,-0.03735978769573928,7,15.777804616199186,-0.14224299065420554,0.3968884260902467,2.1976014925683208e-08,0.2748557852004438,-0.002845093531305457,-2.3213477968595446e-11
EOG230428P00108000,2023-04-07,10:00:00,2023-04-28,0.475,0.4,0.55,108.0,21,p,173,0.4031300500412079,-0.08582994489577112,0.013526340029157424,-0.04157849350937454,110,14.852804616199185,-0.1316666666666666,0.3924186601467094,1.5413255491496003e-07,0.33836723888173087,-0.03495513329307709,-1.7604016629494175e-09
EOG230428P00109000,2023-04-07,10:00:00,2023-04-28,0.55,0.5,0.6,109.0,21,p,58,0.3952693866237938,-0.09843207398948506,0.015236079122793456,-0.045277920447312936,20,13.927804616199186,-0.1212844036697247,0.3855719719136639,8.421115007370598e-07,0.41564000550930846,-0.013200359885397535,-3.2245482645025816e-09
EOG230428P00110000,2023-04-07,10:00:00,2023-04-28,0.6499999999999999,0.6,0.7,110.0,21,p,46,0.3928194904818641,-0.11405515377838626,0.01714314173839604,-0.049858201594973894,11,13.027804616199186,-0.11109090909090913,0.38115516865103977,4.92520097153399e-06,0.5091479105051272,-0.011779661379699739,-1.4957295638538402e-08
EOG230428P00111000,2023-04-07,10:00:00,2023-04-28,0.7749999999999999,0.7,0.85,111.0,21,p,67,0.3884843242963455,-0.13246429702389872,0.01918556862157139,-0.055020581159979765,3,12.152804616199186,-0.10108108108108116,0.3782309815013791,2.7665516795953674e-05,0.621583707283026,-0.019201450488995922,-1.2237279505605053e-07
EOG230428P00112000,2023-04-07,10:00:00,2023-04-28,0.925,0.85,1.0,112.0,21,p,18,0.3817802842528772,-0.15341679552490772,0.02130647575482314,-0.060490344198104284,2,11.302804616199186,-0.09125000000000005,0.37611433556430374,0.00013951790540068577,0.7558096641086347,-0.005728866263761196,-1.6579588307844924e-07
EOG230428P00113000,2023-04-07,10:00:00,2023-04-28,1.075,1.0,1.15,113.0,21,p,48,0.3751143568115972,-0.1747772138912862,0.02350288215824392,-0.06498058696456988,41,10.452804616199185,-0.08159292035398225,0.37104778505343866,0.0005505703390359318,0.9147917177623298,-0.016851824174258567,-1.7447183866492656e-06
EOG230428P00114000,2023-04-07,10:00:00,2023-04-28,1.275,1.2,1.35,114.0,21,p,77,0.3755482065148377,-0.20037643618969758,0.025679602202455243,-0.07045556066706626,1,9.652804616199186,-0.07210526315789467,0.3695217821621875,0.0021064589870503935,1.1015195426544941,-0.029536809080264508,-1.0708164213010595e-05
EOG230428P00115000,2023-04-07,10:00:00,2023-04-28,1.5,1.4,1.6,115.0,21,p,17,0.3714247358973614,-0.22793190693679577,0.027814168896966862,-0.0755836003135737,2,8.877804616199185,-0.06278260869565222,0.36771980354480716,0.006766819138214697,1.318916331155677,-0.007063168511128515,-7.594597814172593e-06
EOG230428P00116000,2023-04-07,10:00:00,2023-04-28,1.75,1.65,1.85,116.0,21,p,8,0.3646559864028095,-0.25730849862931615,0.029881930740938145,-0.08020191526601783,7,8.127804616199185,-0.053620689655172304,0.3654867350029609,0.01824366296024997,1.569743260483233,-0.003570945323805958,-9.635479171869858e-06
EOG230428P00117000,2023-04-07,10:00:00,2023-04-28,2.025,1.95,2.1,117.0,21,p,6,0.3606005441568369,-0.28840093473194717,0.031862627589696046,-0.08416708633965153,1,7.402804616199186,-0.0446153846153845,0.3627067588234955,0.04125925260980747,1.8565043820014173,-0.002855731662271357,-1.6343455945562612e-05
EOG230428P00118000,2023-04-07,10:00:00,2023-04-28,2.35,2.25,2.45,118.0,21,p,2,0.3619117960702228,-0.32201307504871046,0.03355621905676287,-0.08803935082273551,2,6.727804616199185,-0.035762711864406826,0.36165132635937325,0.07850148849835266,2.1813579084155705,-0.001002507372801656,-1.0365235575700069e-05
EOG230428P00119000,2023-04-07,10:00:00,2023-04-28,2.7,2.6,2.8,119.0,21,p,9,0.3543233725460187,-0.35678570562645007,0.035091493035821486,-0.09093365305897727,2,6.077804616199185,-0.027058823529411802,0.35968821707806153,0.12135757033593952,2.5460395561125533,-0.0047176847290763355,-7.210753875754219e-05
EOG230428P00120000,2023-04-07,10:00:00,2023-04-28,3.1,3.0,3.2,120.0,21,p,10,0.3496218815677145,-0.393125489585211,0.036246556849306444,-0.09339130510773419,1,5.477804616199185,-0.01849999999999996,0.3590058722932472,0.14797148165166277,2.9518027565188136,-0.005414412216500994,-9.768982061002896e-05
EOG230428P00122000,2023-04-07,10:00:00,2023-04-28,4.05,3.9,4.2,122.0,21,p,1,0.350190729821529,-0.4677909692536897,0.03727545585086034,-0.09655372472916302,1,4.427804616199185,-0.001803278688524479,0.3608915278912406,0.060682955086044786,3.8889622440733067,-0.0005568106354863427,-4.006249670728728e-06
EOG230428P00123000,2023-04-07,10:00:00,2023-04-28,4.550000000000001,4.4,4.7,123.0,21,p,10,0.3414634944764558,-0.5052608983720397,0.037569076152266234,-0.096017903914702,10,3.927804616199186,0.006341463414634152,0.3591507484568512,-0.039897924231049965,4.420211860665077,-0.0056119665580147,2.6340353001392018e-05
EOG230428P00124000,2023-04-07,10:00:00,2023-04-28,5.15,5.0,5.3,124.0,21,p,2,0.3420138720718949,-0.5415839310943138,0.03698636059645821,-0.09609503706961764,1,3.5278046161991856,0.014354838709677464,0.3627882729525402,-0.12717108692584403,4.992282561361257,-0.0011049844181887094,1.6791506755083577e-05
EOG230428P00125000,2023-04-07,10:00:00,2023-04-28,5.8,5.6,6.0,125.0,21,p,0,0.3471757045760292,-0.5761660796116619,0.03601170592837377,-0.09573435782010797,1,3.177804616199185,0.022240000000000038,0.3677177187254792,-0.16910791223583718,5.603868876057069,-0.0,0.0
EOG230428P00134000,2023-04-07,10:00:00,2023-04-28,13.15,12.8,13.5,134.0,21,p,2,0.384693198819362,-0.7817199970135746,0.02212710711546606,-0.08412968619253114,5,1.5278046161991856,0.08791044776119405,0.449198271556066,-0.003792064045781026,12.532066812831559,-0.0006610574327370789,5.006992593966858e-07
EOG230428P00135000,2023-04-07,10:00:00,2023-04-28,14.1,13.8,14.4,135.0,21,p,0,0.3931755458497166,-0.7921888641956087,0.020772172035776748,-0.08433853516226897,5,1.477804616199185,0.09466666666666668,0.4648397724068217,-0.002332877006105127,13.415488501641834,-0.0,0.0
EOG230505C00109000,2023-04-07,10:00:00,2023-05-05,13.65,13.4,13.9,109.0,28,c,11,0.4269220571871833,0.9349108331656808,0.012986228057343396,-0.025728112204149056,10,0.21954858032528968,-0.1212844036697247,0.2797495898217196,6.45499299482309e-07,14.05131893721425,0.0021338322242716082,4.687699350787657e-10
EOG230505C00110000,2023-04-07,10:00:00,2023-05-05,12.75,12.5,13.0,110.0,28,c,14,0.4147896608436506,0.9170752947224692,0.015560022585958677,-0.030383880196932722,5,0.3195485803252893,-0.11109090909090913,0.2826070232393386,6.798827896043372e-06,13.184850795824314,0.0032540394780168295,6.283959437001853e-09
EOG230505C00111000,2023-04-07,10:00:00,2023-05-05,11.95,11.7,12.2,111.0,28,c,9,0.4149300261758331,0.8874389405924887,0.018593248896081604,-0.03861443479472193,6,0.5195485803252886,-0.10108108108108116,0.29761046356444865,0.00010804021741216514,12.33926924076629,0.0024996681187494014,6.419471107451673e-08
EOG230505C00112000,2023-04-07,10:00:00,2023-05-05,11.2,10.9,11.5,112.0,28,c,6,0.4159340954006284,0.8552665459711228,0.021191553098987015,-0.047090168010921474,6,0.7695485803252886,-0.09125000000000005,0.31199915316897525,0.0008837107348690712,11.516771080733134,0.0018993219874010778,3.50052086511143e-07
EOG230505C00113000,2023-04-07,10:00:00,2023-05-05,10.3,10.0,10.6,113.0,28,c,2,0.4003239186590867,0.8377779625043935,0.02360064330630962,-0.04912199729592892,2,0.86954858032529,-0.08159292035398225,0.3025231125194041,0.0022739257251565928,10.71952265293316,0.0007050799995498622,3.0024622811307967e-07
EOG230505C00114000,2023-04-07,10:00:00,2023-05-05,9.6,9.4,9.8,114.0,28,c,11,0.3991982377425447,0.8034855994526247,0.02575004584670637,-0.056632034192901415,6,1.169548580325289,-0.07210526315789467,0.3134015448371175,0.009145258676332209,9.94960841769662,0.004231119102602125,6.641405063368722e-06
EOG230505C00115000,2023-04-07,10:00:00,2023-05-05,8.85,8.7,9.0,115.0,28,c,23,0.3930752365300803,0.7740747866916919,0.027869144254566436,-0.061289752556138666,6,1.419548580325289,-0.06278260869565222,0.3145886665990075,0.023194444743978415,9.208978955268249,0.009574939275148079,3.5219493500117584e-05
EOG230505C00116000,2023-04-07,10:00:00,2023-05-05,8.15,8.0,8.3,116.0,28,c,27,0.3914657340198678,0.7419378788640074,0.029725966790294933,-0.066042169678866,1,1.7195485803252897,-0.053620689655172304,0.31730180606060127,0.05052068681923515,8.499400799631031,0.011989037295202827,9.005426788270526e-05
EOG230505C00117000,2023-04-07,10:00:00,2023-05-05,7.5,7.3,7.7,117.0,28,c,2,0.3943704790734302,0.7078815592868715,0.03124364798878787,-0.07066281911567085,4,2.0695485803252893,-0.0446153846153845,0.3211437632521091,0.09245843361489772,7.822410502415342,0.000933418255763439,1.2208092657997839e-05
EOG230505C00118000,2023-04-07,10:00:00,2023-05-05,6.85,6.7,7.0,118.0,28,c,23,0.3888245543612836,0.6742954785290411,0.03271951000805018,-0.07397484868416004,1,2.419548580325289,-0.035762711864406826,0.3218080070938745,0.14029013782641314,7.1792751078349175,0.011241368539270715,0.00021302288767187212
EOG230505C00119000,2023-04-07,10:00:00,2023-05-05,6.25,6.1,6.4,119.0,28,c,5,0.3844411002188879,0.6393086241187174,0.03383183210026175,-0.07701375271085009,2,2.8195485803252893,-0.027058823529411802,0.3235907032594337,0.17906628109624503,6.570960856635726,0.002526853595940558,5.9109203619306426e-05
EOG230505C00120000,2023-04-07,10:00:00,2023-05-05,5.65,5.5,5.8,120.0,28,c,25,0.3799658206983746,0.6043963762047522,0.034939074913253876,-0.07876255517154984,2,3.2195485803252897,-0.01849999999999996,0.3225334045543228,0.18895624683819198,5.998111456138567,0.013047760290035999,0.00031186924755240337
EOG230505C00121000,2023-04-07,10:00:00,2023-05-05,5.1,4.9,5.3,121.0,28,c,5,0.3794008104049104,0.5685653480552944,0.035658540546990025,-0.08014393861998226,2,3.669548580325289,-0.010082644628099269,0.32255856415294687,0.15239163502333133,5.461036696854519,0.0026632879691566216,5.030398872042029e-05
EOG230505C00122000,2023-04-07,10:00:00,2023-05-05,4.6,4.4,4.8,122.0,28,c,15,0.3803392719104539,0.5324637102105623,0.03596951041906493,-0.08111205318215031,1,4.169548580325289,-0.001803278688524479,0.32359189578903563,0.06934153071580888,4.9597116106195855,0.008059541659814432,6.866824898461167e-05
EOG230505C00123000,2023-04-07,10:00:00,2023-05-05,4.15,4.0,4.3,123.0,28,c,7,0.3765205970774257,0.49673040905386934,0.03586996631277373,-0.08166831264702168,2,4.71954858032529,0.006341463414634152,0.3256355640759768,-0.03792616194465981,4.493785797037906,0.0037507107014815443,-1.752702575396131e-05
EOG230505C00124000,2023-04-07,10:00:00,2023-05-05,3.65,3.5,3.8,124.0,28,c,54,0.3686052503208082,0.46031209949433105,0.036176075077776204,-0.0800508584391797,5,5.21954858032529,0.014354838709677464,0.3213598917961078,-0.14259050925424074,4.0626020356012065,0.02918097274085081,-0.0005083416210811983
EOG230505C00125000,2023-04-07,10:00:00,2023-05-05,3.25,3.1,3.4,125.0,28,c,688,0.3685386790996628,0.425172730260881,0.03566410039290702,-0.07896728119414265,4,5.819548580325289,0.022240000000000038,0.32187372124921154,-0.20923284027996752,3.6652228830546125,0.3665255639661098,-0.009503631282402357
EOG230505C00128000,2023-04-07,10:00:00,2023-05-05,2.25,2.15,2.35,128.0,28,c,0,0.3649301036147831,0.326498389179819,0.03265078362790774,-0.07255169190172372,10,7.819548580325289,0.04515625000000001,0.32361989264229596,-0.16032976950958866,2.663058183734872,0.0,-0.0
EOG230505C00130000,2023-04-07,10:00:00,2023-05-05,1.725,1.6,1.85,130.0,28,c,54,0.365845829095444,0.2676220675248975,0.029762692348445086,-0.0660468436428776,12,9.294548580325289,0.05984615384615388,0.3241596066000812,-0.06764854051816042,2.137445893849144,0.024007698796706868,-0.000241170109642175
EOG230505C00131000,2023-04-07,10:00:00,2023-05-05,1.5,1.4,1.6,131.0,28,c,6,0.3667536442663309,0.24053234443912608,0.028139790502201834,-0.062318041036852234,6,10.06954858032529,0.06702290076335882,0.3242052135289173,-0.037287300384588495,1.9120983920945966,0.0025220672865287437,-1.4770101555829555e-05
EOG230505C00135000,2023-04-07,10:00:00,2023-05-05,0.85,0.75,0.95,135.0,28,c,18,0.3666670103575625,0.15243642072165775,0.021104767033985894,-0.04721144578741732,4,13.419548580325289,0.09466666666666668,0.3273883010048859,-0.0014944687881590303,1.217939738901872,0.005674631002181188,-1.7759496299375233e-06
EOG230505C00140000,2023-04-07,10:00:00,2023-05-05,0.4,0.3,0.5,140.0,28,c,11,0.3698914237860168,0.0806267062692545,0.01318880367695563,-0.030060363930135447,2,17.969548580325288,0.127,0.3324946796348637,-5.778476137441827e-06,0.6926287510178428,0.00216711843972013,-4.196404064226318e-09
EOG230505P00098000,2023-04-07,10:00:00,2023-05-05,0.325,0.25,0.4,98.0,28,p,14,0.5041798216419872,-0.04491696596858885,0.0056582028262752715,-0.02709759341728829,3,24.75545141967471,-0.2471428571428571,0.4905506260666726,1.2719875519271036e-08,0.07677605074772856,-0.0011832897587141736,-1.1756612026218314e-11
EOG230505P00099000,2023-04-07,10:00:00,2023-05-05,0.375,0.3,0.45,99.0,28,p,34,0.50144402297227,-0.05114814201603035,0.006327745303846832,-0.02986901844067924,4,23.80545141967471,-0.2345454545454546,0.4867053203663785,4.697071167148764e-08,0.09480174897859356,-0.003213752784930142,-1.0543319007179085e-10
EOG230505P00100000,2023-04-07,10:00:00,2023-05-05,0.375,0.3,0.45,100.0,28,p,13,0.4822412024834834,-0.052979460961463665,0.006766474928698862,-0.029532149636910032,1,22.80545141967471,-0.22219999999999995,0.4680444716028771,6.926457750589558e-08,0.11674490260021972,-0.0013139849412340688,-5.944643723472278e-11
EOG230505P00101000,2023-04-07,10:00:00,2023-05-05,0.425,0.35,0.5,101.0,28,p,3,0.4796142346634296,-0.059604675927768525,0.007518194022337887,-0.03203724661768009,3,21.85545141967471,-0.21009900990099006,0.4622474438444974,2.2298835668415648e-07,0.14339569288289145,-0.0003369142210925607,-4.4164643726176306e-11
EOG230505P00102000,2023-04-07,10:00:00,2023-05-05,0.5,0.4,0.6,102.0,28,p,3,0.4742449260418463,-0.06860395792110952,0.008414952994417746,-0.03566368719900476,5,20.93045141967471,-0.19823529411764707,0.46069313047202715,8.692827448701081e-07,0.17568208546694664,-0.00037710084698813697,-1.7216846339147306e-10
EOG230505P00104000,2023-04-07,10:00:00,2023-05-05,0.625,0.55,0.7,104.0,28,p,4,0.4546360752999863,-0.08496877696129168,0.01020698738196657,-0.04076645388755684,4,19.05545141967471,-0.17519230769230765,0.44691905996349296,6.693697430237548e-06,0.2616396143010697,-0.0006098768211761748,-1.7676543990201237e-09
EOG230505P00105000,2023-04-07,10:00:00,2023-05-05,0.7250000000000001,0.65,0.8,105.0,28,p,7,0.4519491219760589,-0.09653241279011793,0.011277203959547677,-0.044629924874993065,5,18.155451419674712,-0.16399999999999992,0.4446764400504533,2.152394068139298e-05,0.3179601129120268,-0.0011791906690138947,-9.94697705504654e-09
EOG230505P00106000,2023-04-07,10:00:00,2023-05-05,0.825,0.75,0.9,106.0,28,p,9,0.4492806141711299,-0.10826685255009849,0.012376543507830462,-0.04807807877227366,8,17.25545141967471,-0.15301886792452835,0.4404231319803756,6.022371018729877e-05,0.38522214335398003,-0.0016638970090567923,-3.578337556060643e-08
EOG230505P00107000,2023-04-07,10:00:00,2023-05-05,0.95,0.85,1.05,107.0,28,p,2,0.4497621402711177,-0.12203414876607588,0.013547175753414464,-0.05210487277260045,1,16.38045141967471,-0.14224299065420554,0.4381027515340523,0.00017013998000537343,0.46516622137671654,-0.0004047280639831413,-2.2465064132352118e-08
EOG230505P00109000,2023-04-07,10:00:00,2023-05-05,1.2000000000000002,1.1,1.3,109.0,28,p,4,0.4309792058312616,-0.15032710492124401,0.016005314988909447,-0.05870368256910807,3,14.63045141967471,-0.1212844036697247,0.42771804948651043,0.0009674151626064472,0.6707895061896461,-0.0009563321930431132,-2.5547250763609245e-07
EOG230505P00110000,2023-04-07,10:00:00,2023-05-05,1.35,1.25,1.45,110.0,28,p,2,0.424742145563613,-0.16658296364060465,0.0173086295252034,-0.06211133513919598,1,13.78045141967471,-0.11109090909090913,0.4230568444263324,0.002168828334817241,0.8006042902882047,-0.0005171032136474186,-2.863693038649293e-07
EOG230505P00111000,2023-04-07,10:00:00,2023-05-05,1.5499999999999998,1.45,1.65,111.0,28,p,18,0.4246399050075287,-0.18599298373441764,0.018598064837060946,-0.06645986554722283,5,12.980451419674711,-0.10108108108108116,0.4221538614816174,0.004898533192353503,0.9513056607186685,-0.00500063114342892,-5.821164201705053e-06
EOG230505P00113000,2023-04-07,10:00:00,2023-05-05,1.975,1.85,2.1,113.0,28,p,3,0.4166413374834192,-0.22669341201307924,0.021201219013722294,-0.07367402890119057,1,11.40545141967471,-0.08159292035398225,0.4164145607724017,0.018713069682677556,1.3241249238625277,-0.0009500941541276984,-3.7062744792956533e-06
EOG230505P00114000,2023-04-07,10:00:00,2023-05-05,2.225,2.1,2.35,114.0,28,p,10,0.4103826969147918,-0.24916644397998677,0.022453679950906746,-0.07711167878645497,1,10.65545141967471,-0.07210526315789467,0.41408172475501387,0.03290754758870314,1.5504936141144805,-0.003354069726871703,-2.172535129589463e-05
EOG230505P00115000,2023-04-07,10:00:00,2023-05-05,2.5,2.4,2.6,115.0,28,p,6,0.4064630241594747,-0.2728806956039609,0.02365136754889363,-0.08031051777019549,2,9.93045141967471,-0.06278260869565222,0.4119016529848467,0.05346336903368353,1.8061470771745993,-0.002119786228403681,-2.117770345398025e-05
EOG230505P00116000,2023-04-07,10:00:00,2023-05-05,2.8,2.7,2.9,116.0,28,p,8,0.4048612698925697,-0.29771557450950503,0.02478045777465354,-0.083191045318038,5,9.230451419674711,-0.053620689655172304,0.40976434037207016,0.07982677394373201,2.092851847025878,-0.002961309982923544,-4.216089824550532e-05
EOG230505P00118000,2023-04-07,10:00:00,2023-05-05,3.45,3.3,3.6,118.0,28,p,7,0.3955071818970804,-0.3498128408114587,0.02690408843708525,-0.08724854241730062,2,7.880451419674711,-0.035762711864406826,0.40331395665106035,0.13492670849227661,2.765292006206749,-0.0028132017614593196,-6.235442168105668e-05
EOG230505P00119000,2023-04-07,10:00:00,2023-05-05,3.85,3.7,4.0,119.0,28,p,32,0.3910915070653353,-0.37785214624448393,0.027642571991393083,-0.0892845880070614,32,7.28045141967471,-0.027058823529411802,0.40284692015003604,0.14853557075047835,3.1532606804960506,-0.013213351445916063,-0.0003137991315376561
EOG230505P00120000,2023-04-07,10:00:00,2023-05-05,4.25,4.1,4.4,120.0,28,p,1,0.3866980676666167,-0.40611045183669425,0.028389712527499,-0.09029979304486702,1,6.680451419674711,-0.01849999999999996,0.4001931721546177,0.1423397022055704,3.576694205487384,-0.00042407781508985756,-9.397175603661915e-06
EOG230505P00122000,2023-04-07,10:00:00,2023-05-05,5.25,5.1,5.4,122.0,28,p,28,0.3903908416336866,-0.4641835069207456,0.0288462965780667,-0.09279294196000887,28,5.680451419674711,-0.001803278688524479,0.40338068934907495,0.05278673445476007,4.530860210945388,-0.012065148021612272,-9.757849535168889e-05
EOG230505P00123000,2023-04-07,10:00:00,2023-05-05,5.75,5.6,5.9,123.0,28,p,2,0.3825888516400936,-0.4931899464881706,0.029073368503773622,-0.0924703683858974,2,5.180451419674711,0.006341463414634152,0.40172446070881307,-0.01648280743380978,5.061217322852201,-0.0008685801647649693,2.176368694001565e-06
EOG230505P00125000,2023-04-07,10:00:00,2023-05-05,6.9,6.7,7.1,125.0,28,p,11,0.3788787689404954,-0.5500204909438366,0.02873301298222941,-0.09142546298100829,11,4.330451419674711,0.022240000000000038,0.4031837946594028,-0.1419626437567513,6.225220259845897,-0.004721265384464386,0.00010309510692084978
EOG230512C00112000,2023-04-07,10:00:00,2023-05-12,11.7,11.4,12.0,112.0,35,c,10,0.4211018305911336,0.8198689751282018,0.020716085700200892,-0.05061431321742127,9,1.2168791282500102,-0.09125000000000005,0.3293104810520329,0.01349857581379319,11.925501724301403,0.0030945126170072476,8.911672945497703e-06
EOG230512C00114000,2023-04-07,10:00:00,2023-05-12,10.2,9.9,10.5,114.0,35,c,1,0.4096432542808299,0.7700529458043448,0.02383441700004596,-0.05830049003624893,1,1.7168791282500102,-0.07210526315789467,0.3318503953562884,0.049099217153538204,10.420174050385144,0.00035603204771902935,3.2414987417057506e-06
EOG230512C00115000,2023-04-07,10:00:00,2023-05-12,9.4,9.2,9.6,115.0,35,c,4,0.3997076474015136,0.7473289120422777,0.025601444129108586,-0.06005686277794098,4,1.9168791282500113,-0.06278260869565222,0.32544486222522995,0.07676927635013144,9.708249499043037,0.0015297096761935944,2.0273033023108357e-05
EOG230512C00116000,2023-04-07,10:00:00,2023-05-12,8.75,8.6,8.9,116.0,35,c,30,0.4019840127060962,0.7176313921026356,0.026792608434078602,-0.06390774188400883,30,2.266879128250011,-0.053620689655172304,0.3291876718063163,0.11687624076149478,9.025134310322514,0.012006621237474462,0.00023148282762572477
EOG230512C00118000,2023-04-07,10:00:00,2023-05-12,7.449999999999999,7.3,7.6,118.0,35,c,1,0.3919471656828691,0.6591140433706677,0.029104767147458688,-0.06888459504990063,1,2.96687912825001,-0.035762711864406826,0.3292416881711777,0.19104981821184375,7.749152720914382,0.0004347591067939806,1.261298613784877e-05
EOG230512C00120000,2023-04-07,10:00:00,2023-05-12,6.25,6.1,6.4,120.0,35,c,3,0.3834580165760766,0.5978168652824856,0.030881060748555456,-0.07191190335623343,3,3.766879128250011,-0.01849999999999996,0.3276133941347633,0.19274371771522686,6.597713087564152,0.0013838786944974663,3.81744488812429e-05
EOG230512C00121000,2023-04-07,10:00:00,2023-05-12,5.75,5.6,5.9,121.0,35,c,4,0.3861789399994224,0.5659880967213926,0.03115848133283805,-0.0735172329925966,6,4.266879128250011,-0.010082644628099269,0.33034056618465635,0.14298534469708377,6.069418554620923,0.001861747726025619,3.775920202300498e-05
EOG230512C00122000,2023-04-07,10:00:00,2023-05-12,5.25,5.1,5.4,122.0,35,c,1,0.386305327419716,0.534473592527096,0.03143102857094959,-0.07420085505963847,2,4.766879128250011,-0.001803278688524479,0.3308902827421944,0.06659461777738221,5.5726649388829435,0.00046950816812548515,4.39653383993321e-06
EOG230512C00123000,2023-04-07,10:00:00,2023-05-12,4.75,4.6,4.9,123.0,35,c,2,0.3791855874214204,0.5028641396856326,0.03170387867790225,-0.07398133059713263,2,5.266879128250011,0.006341463414634152,0.329353057439801,-0.026180796214595084,5.107117477882903,0.0009471678578341098,-3.456878659432927e-06
EOG230512C00124000,2023-04-07,10:00:00,2023-05-12,4.25,4.1,4.4,124.0,35,c,14,0.3719216701444306,0.470759158099332,0.03197691261114244,-0.07285399553102678,10,5.766879128250011,0.014354838709677464,0.32575022196583425,-0.12154779400687096,4.672234200722121,0.006687274099180928,-0.00011234310073369175
EOG230512C00125000,2023-04-07,10:00:00,2023-05-12,3.85,3.7,4.0,125.0,35,c,280,0.3716110396670251,0.43977624369011536,0.03161097197335039,-0.07226654427738133,283,6.366879128250011,0.022240000000000038,0.3267046590571728,-0.1962183668376566,4.267283280308111,0.13221491186341766,-0.003627178910412347
EOG230512C00130000,2023-04-07,10:00:00,2023-05-12,2.2,2.1,2.3,130.0,35,c,8,0.3640430544336873,0.29546090156042926,0.027765060610640546,-0.06250346898948145,5,9.71687912825001,0.05984615384615388,0.32588392103477926,-0.15857452711229825,2.655366095092818,0.003317975475290293,-8.375190642958069e-05
EOG230512C00135000,2023-04-07,10:00:00,2023-05-12,1.2000000000000002,1.1,1.3,135.0,35,c,25,0.3625096143568873,0.1839814321335731,0.021225504520661076,-0.04809938969615324,10,13.71687912825001,0.09466666666666668,0.3285574374677487,-0.01772378662312849,1.6126121586513595,0.007926520542065184,-2.9252824875738434e-05
EOG230512P00100000,2023-04-07,10:00:00,2023-05-12,0.575,0.5,0.65,100.0,35,p,1,0.469904114594469,-0.06959533859086098,0.0075744791094845,-0.03239865337401737,1,23.05812087174999,-0.22219999999999995,0.46281357424338365,1.6394186224566024e-05,0.19258256179650143,-0.0001131455117089533,-1.0823336317571208e-09
EOG230512P00102000,2023-04-07,10:00:00,2023-05-12,0.7250000000000001,0.65,0.8,102.0,35,p,2,0.4559662877562419,-0.08600839712692987,0.0090744043179658,-0.037326798705183295,2,21.20812087174999,-0.19823529411764707,0.4536832518354521,8.053316764223485e-05,0.28128810589770714,-0.0002711019741871208,-1.0633495876789993e-08
EOG230512P00105000,2023-04-07,10:00:00,2023-05-12,1.0,0.9,1.1,105.0,35,p,1,0.4437306156080944,-0.11558353430549673,0.011660722347706098,-0.044736429004939016,1,18.48312087174999,-0.16399999999999992,0.43805410678659434,0.0006699805421793367,0.48377860226233055,-0.00017418470337784406,-4.423168454296131e-08
EOG230512P00109000,2023-04-07,10:00:00,2023-05-12,1.5499999999999998,1.45,1.65,109.0,35,p,6,0.4190270758046405,-0.16977285303743095,0.015731712812439014,-0.05580555996508285,6,15.03312087174999,-0.1212844036697247,0.4213554109756195,0.008039829304585733,0.944388799309983,-0.0014099763195540849,-3.184706162566462e-06
EOG230512P00110000,2023-04-07,10:00:00,2023-05-12,1.75,1.65,1.85,110.0,35,p,1,0.4186736828274135,-0.1872240824980942,0.016787966417020073,-0.05912960821098312,1,14.233120871749989,-0.11109090909090913,0.4199280852050186,0.014087049903886059,1.1045882005663226,-0.00025077408272576693,-9.30017975541229e-07
EOG230512P00112000,2023-04-07,10:00:00,2023-05-12,2.2,2.1,2.3,112.0,35,p,1,0.4142456189528624,-0.22483984996783946,0.018872223259691623,-0.06527973313776059,1,12.683120871749988,-0.09125000000000005,0.4163894511382731,0.03662232879011345,1.4910663767379146,-0.00028190814535743614,-2.4177825956015764e-06
EOG230512P00113000,2023-04-07,10:00:00,2023-05-12,2.4,2.3,2.5,113.0,35,p,28,0.4043233302461022,-0.24314365473896427,0.02001436520959743,-0.06705272443556431,28,11.88312087174999,-0.08159292035398225,0.41000127494225536,0.05324563049298878,1.720632339911267,-0.008371136244782511,-9.842678394911261e-05
EOG230512P00117000,2023-04-07,10:00:00,2023-05-12,3.65,3.5,3.8,117.0,35,p,2,0.3975022103902327,-0.3340607473743207,0.0235905088219468,-0.07641654924273045,2,9.13312087174999,-0.0446153846153845,0.4041792356298928,0.14961155007738675,2.914179407434414,-0.0007047772272000906,-1.975451664754489e-05
EOG230512P00119000,2023-04-07,10:00:00,2023-05-12,4.35,4.2,4.5,119.0,35,p,1,0.3827119757540028,-0.38296511797826227,0.025216067580657864,-0.07826220946258022,1,7.833120871749989,-0.027058823529411802,0.3964594115729461,0.16456366011392828,3.6907181460931233,-0.00037667076883591226,-1.0864387012967903e-05
EOG230512P00120000,2023-04-07,10:00:00,2023-05-12,4.85,4.7,5.0,120.0,35,p,1,0.385651375179068,-0.4093793016014313,0.025425414351687436,-0.08029722372898984,1,7.333120871749989,-0.01849999999999996,0.4003031765666589,0.14323223859868942,4.126124281764621,-0.000379797934042969,-9.456100282362486e-06
EOG230512P00121000,2023-04-07,10:00:00,2023-05-12,5.25,5.1,5.4,121.0,35,p,2,0.3815466641908104,-0.4351756005540164,0.026059192359539907,-0.0801402955350703,2,6.733120871749989,-0.010082644628099269,0.3955912878571057,0.10749131174172119,4.593185566541885,-0.0007785302755803246,-1.4193014551148743e-05
EOG230512P00123000,2023-04-07,10:00:00,2023-05-12,6.25,6.1,6.4,123.0,35,p,1,0.3753508786478308,-0.48791362255720117,0.026469938614326338,-0.08040851769399993,1,5.733120871749989,0.006341463414634152,0.3943513649913225,-0.011165664447496943,5.621596125244855,-0.0003954007537854792,7.371499863977321e-07
EOG230512P00130000,2023-04-07,10:00:00,2023-05-12,10.7,10.4,11.0,130.0,35,p,2,0.3649123290408101,-0.6588935145022567,0.0239073151142577,-0.072772378131722,2,3.1831208717499884,0.05984615384615388,0.40091913426970543,-0.18623842078710967,10.13733546649823,-0.0007142419598999929,2.4590681547971634e-05
EOG230519C00105000,2023-04-07,10:00:00,2023-05-19,17.85,17.6,18.1,105.0,42,c,483,0.4410880526825568,0.9288975366080976,0.00998440082611296,-0.024722511224318566,4,0.3141870178315642,-0.16399999999999992,0.31516225949690524,0.00013771029581570424,18.10629502745935,0.07203668133639292,4.391216317537925e-06
EOG230519C00110000,2023-04-07,10:00:00,2023-05-19,13.7,13.5,13.9,110.0,42,c,240,0.4244291589421435,0.8382659313707741,0.017237413327819695,-0.04428793867934999,19,1.164187017831562,-0.11109090909090913,0.3360198727232629,0.015925797529137076,13.875751116321204,0.06179707166628259,0.0002523386187112189
EOG230519C00115000,2023-04-07,10:00:00,2023-05-19,9.95,9.8,10.1,115.0,42,c,505,0.3985520812521952,0.7272472787430928,0.023558488599917382,-0.05860181324205804,8,2.414187017831562,-0.06278260869565222,0.33554227497272615,0.13681358313798422,10.177013850140096,0.17771470363113134,0.004561334112163675
EOG230519C00120000,2023-04-07,10:00:00,2023-05-19,6.85,6.7,7.0,120.0,42,c,639,0.3829130321121717,0.593075269681087,0.027654844299007664,-0.06727905727405492,13,4.314187017831562,-0.01849999999999996,0.33473676008458497,0.18657715129287242,7.1422502460330515,0.2639712534199506,0.007871012564708745
EOG230519C00125000,2023-04-07,10:00:00,2023-05-19,4.4,4.3,4.5,125.0,42,c,351,0.3694457637297727,0.45090211413811865,0.02862458443608773,-0.06709799809429118,20,6.864187017831563,0.022240000000000038,0.33046493019842377,-0.17937119156105769,4.815070300216329,0.15008278002207012,-0.004156531721549804
EOG230519C00130000,2023-04-07,10:00:00,2023-05-19,2.675,2.6,2.75,130.0,42,c,484,0.3623511015469059,0.31820567102349706,0.02593230544079006,-0.05967258843223977,10,10.139187017831564,0.05984615384615388,0.3289820160672486,-0.23847019441638684,3.141837513699023,0.18748695196281626,-0.0076199260577905215
EOG230519C00135000,2023-04-07,10:00:00,2023-05-19,1.525,1.45,1.6,135.0,42,c,152,0.3575060379909821,0.2081757121357164,0.02095806324042826,-0.047336127716078646,5,13.989187017831563,0.09466666666666668,0.32731218413766106,-0.06173011932746159,2.00326960318363,0.04758601018428227,-0.0006194581826414262
EOG230519C00140000,2023-04-07,10:00:00,2023-05-19,0.8500000000000001,0.8,0.9,140.0,42,c,62,0.3595026990335518,0.1294394609893057,0.015314151199374848,-0.03479032672196092,1,18.314187017831564,0.127,0.3296047882357866,-0.006071559396659049,1.2601966696577327,0.014183035140153335,-2.485210770552407e-05
EOG230519C00145000,2023-04-07,10:00:00,2023-05-19,0.45,0.4,0.5,145.0,42,c,3,0.3630687737639611,0.07580106918509966,0.010319817383974694,-0.023456020342828343,1,22.914187017831562,0.1571034482758621,0.3310123288596502,-0.0002685398042726556,0.7882292095754558,0.0004624638876582375,-5.3186475555750916e-08
EOG230519P00100000,2023-04-07,10:00:00,2023-05-19,0.75,0.7,0.8,100.0,42,p,346,0.4542685137180502,-0.081763721312339,0.007991352034553145,-0.03268237367762561,10,23.285812982168437,-0.22219999999999995,0.45269382266830926,0.0002922130136022729,0.2868137360227819,-0.04130293559936603,-6.674933473525045e-06
EOG230519P00105000,2023-04-07,10:00:00,2023-05-19,1.275,1.2,1.35,105.0,42,p,242,0.4341726139371142,-0.13137528637351403,0.011775784971579384,-0.04404990777364337,10,18.810812982168436,-0.16399999999999992,0.4330645851039115,0.004621138766085399,0.6681640168620802,-0.042568641579745596,-7.383047551610578e-05
EOG230519P00110000,2023-04-07,10:00:00,2023-05-19,2.1,2.0,2.2,110.0,42,p,186,0.413982747661603,-0.20196176075679695,0.016240677185308527,-0.055590629255726665,3,14.635812982168437,-0.11109090909090913,0.4148563938779074,0.038563419137436585,1.4097679691647498,-0.04512338141767604,-0.00047354337656197696
EOG230519P00115000,2023-04-07,10:00:00,2023-05-19,3.4,3.3,3.5,115.0,42,p,250,0.3932531700356651,-0.2969670442068084,0.020571175025629884,-0.06583816109787888,1,10.935812982168438,-0.06278260869565222,0.4023497991442341,0.14307625316158748,2.6831785664244507,-0.07682165635043055,-0.0023614505560290693
EOG230519P00120000,2023-04-07,10:00:00,2023-05-19,5.25,5.1,5.4,120.0,42,p,2408,0.3748972763134197,-0.4104601908314187,0.023722896980160613,-0.07121375015839959,3,7.785812982168437,-0.01849999999999996,0.39174636276546687,0.14555952813958573,4.6205628257582125,-0.8533137902175731,-0.023140269430450312
EOG230519P00125000,2023-04-07,10:00:00,2023-05-19,7.85,7.7,8.0,125.0,42,p,2,0.3650633406136482,-0.5312066449042252,0.02428700418555252,-0.07144682523621171,1,5.385812982168437,0.022240000000000038,0.3909701097342626,-0.12642827728404132,7.2655307433823,-0.0007255853443468934,1.6693427125353394e-05
EOG230519P00130000,2023-04-07,10:00:00,2023-05-19,11.1,10.9,11.3,130.0,42,p,1,0.3565716343328604,-0.6427348206661243,0.022523743279379005,-0.06598849559603437,1,3.635812982168437,0.05984615384615388,0.39488020526934925,-0.2329016743413186,10.564445820305801,-0.0003364535596586889,1.5376018765385618e-05
EOG230519P00135000,2023-04-07,10:00:00,2023-05-19,15.0,14.8,15.2,135.0,42,p,5,0.3564004939392873,-0.7301296142081526,0.019130072139716958,-0.05893869958307896,5,2.535812982168437,0.09466666666666668,0.4109954846281696,-0.12452690770595255,14.39802577323122,-0.0014287991094774936,4.110593182932909e-05
EOG230526C00117000,2023-04-07,10:00:00,2023-05-26,9.25,9.1,9.4,117.0,49,c,1,0.4023692885093189,0.6634963925704618,0.023175134220565496,-0.06109393666644536,4,3.6614722393223644,-0.0446153846153845,0.34707249723071615,0.22247303084689615,9.351014044877621,0.00034618386062035305,1.4687526428345734e-05
EOG230526C00120000,2023-04-07,10:00:00,2023-05-26,7.449999999999999,7.3,7.6,120.0,49,c,4,0.3905070348552891,0.5896404076756845,0.02502841081053475,-0.06392196210349077,4,4.861472239322364,-0.01849999999999996,0.3429116932897009,0.17627531997933676,7.644392595683057,0.001495470411885568,4.6550333062947624e-05
EOG230526C00121000,2023-04-07,10:00:00,2023-05-26,6.85,6.7,7.0,121.0,49,c,1,0.3865024171207988,0.5642770516445683,0.025670884733486332,-0.06385347050705192,1,5.261472239322364,-0.010082644628099269,0.3386972643030255,0.12795925592552773,7.128142676296698,0.0003834647039365252,8.447787788044445e-06
EOG230526C00125000,2023-04-07,10:00:00,2023-05-26,4.949999999999999,4.8,5.1,125.0,49,c,0,0.3742900569724919,0.4603970088415732,0.026143713123261136,-0.06335118450497745,1,7.361472239322364,0.022240000000000038,0.33570382946498273,-0.16155046321582087,5.320965821603192,0.0,-0.0
EOG230526C00127000,2023-04-07,10:00:00,2023-05-26,4.15,4.0,4.3,127.0,49,c,0,0.3729814503891982,0.40947619308755456,0.02572840860359804,-0.061526002585361006,1,8.561472239322365,0.037637795275590524,0.33409758029931796,-0.2673290326232732,4.565340050980656,0.0,-0.0
EOG230526C00129000,2023-04-07,10:00:00,2023-05-26,3.45,3.3,3.6,129.0,49,c,7,0.3693641669426136,0.36040907010888024,0.024892131862408462,-0.05882187763487012,7,9.861472239322364,0.05255813953488375,0.3326797646917185,-0.30110333844849513,3.9010679117328615,0.0026028233354035064,-0.00013915054139385685
EOG230526C00130000,2023-04-07,10:00:00,2023-05-26,3.1,3.0,3.2,130.0,49,c,4,0.3634223061612495,0.3355126255626617,0.024456185143684195,-0.056734266935899225,4,10.511472239322364,0.05984615384615388,0.3298592606824195,-0.29266704914939673,3.601100797541445,0.0014612794055058778,-7.72867615049655e-05
EOG230526C00133000,2023-04-07,10:00:00,2023-05-26,2.3,2.2,2.4,133.0,49,c,4,0.3619412204259363,0.26941575411096874,0.022250307085691645,-0.050989541652254555,4,12.711472239322365,0.08105263157894738,0.3286289792149084,-0.20086141771013027,2.8188866515281874,0.0013294761762506291,-5.3042966508291984e-05
EOG230616C00099200,2023-04-07,10:00:00,2023-06-16,24.15,23.9,24.4,99.2,70,c,27,0.4894171960705804,0.9114476370593039,0.0076427833661796285,-0.025242793492235904,3,0.6031917977113537,-0.23205645161290311,0.3724914745212974,0.010485315944676225,24.031577076851494,0.003082477197888784,1.8690313025537944e-05
EOG230616C00101000,2023-04-07,10:00:00,2023-06-16,22.549999999999997,22.2,22.9,101.0,70,c,44,0.474979398741278,0.8953800017428293,0.00879690563948543,-0.028113782092567874,1,0.8031917977113494,-0.21009900990099006,0.3686549888416779,0.01916391946267254,22.441822846669936,0.005781854636934713,5.566834411486708e-05
EOG230616C00102500,2023-04-07,10:00:00,2023-06-16,21.3,21.1,21.5,102.5,70,c,797,0.469479854929319,0.8772897992068707,0.009853653430980103,-0.031459014992702095,1,1.053191797711353,-0.19239024390243897,0.3710595390509124,0.03242825413424214,21.147740099192387,0.11731138536366802,0.0017062913097084969
EOG230616C00104200,2023-04-07,10:00:00,2023-06-16,19.85,19.6,20.1,104.2,70,c,79,0.4604841525191187,0.858417575142667,0.011041974588010817,-0.03423157307030422,5,1.3031917977113565,-0.1729366602687139,0.36719371496529846,0.05124791105045531,19.718778568100678,0.013030419374237191,0.0002672849763486936
EOG230616C00106000,2023-04-07,10:00:00,2023-06-16,18.45,18.2,18.7,106.0,70,c,63,0.4581456874430351,0.832137992342652,0.012304082446235043,-0.038351737059620916,20,1.7031917977113515,-0.15301886792452835,0.37054343443186094,0.08248896056989566,18.25381938660127,0.011579087632963201,0.0003430896921739984
EOG230616C00107500,2023-04-07,10:00:00,2023-06-16,17.25,17.0,17.5,107.5,70,c,81,0.4468846621106569,0.8116168037377136,0.013371115521465526,-0.04080168705008802,5,2.0031917977113523,-0.13693023255813963,0.36770625978956933,0.11177229121897227,17.07411219015147,0.01617846145723879,0.0005977099177993397
EOG230616C00109200,2023-04-07,10:00:00,2023-06-16,15.95,15.7,16.2,109.2,70,c,266,0.4372198931649855,0.7858295738622623,0.014554951857093101,-0.043663372183532445,5,2.4031917977113544,-0.11923076923076925,0.3657987123335233,0.15019322739110763,15.785660396146968,0.05783316611254441,0.002637565636065015
EOG230616C00111000,2023-04-07,10:00:00,2023-06-16,14.6,14.4,14.8,111.0,70,c,265,0.4283507367327767,0.7572433035511139,0.015807738371620417,-0.046237645235416736,7,2.853191797711352,-0.10108108108108116,0.36221173620091157,0.19186746607311575,14.481142221818908,0.06257490113958387,0.0033567461818165907
EOG230616C00112500,2023-04-07,10:00:00,2023-06-16,13.6,13.4,13.8,112.5,70,c,222,0.4280997912549134,0.729802917327671,0.016661484227853407,-0.04892364809610683,1,3.353191797711352,-0.08640000000000003,0.3640066382744432,0.22186552076161825,13.443332799722215,0.055252409202315854,0.003251727018709033
EOG230616C00114200,2023-04-07,10:00:00,2023-06-16,12.4,12.2,12.6,114.2,70,c,342,0.4229423672247216,0.7000516214475283,0.017765903770339264,-0.050650751618798395,3,3.8531917977113554,-0.07022767075306469,0.3593577542678174,0.2461585368438144,12.323412857333174,0.09076072789323746,0.005557920079477147
EOG230616C00116000,2023-04-07,10:00:00,2023-06-16,11.25,11.1,11.4,116.0,70,c,145,0.4133742992195334,0.6656722855407082,0.01870823272298594,-0.05263145035770833,1,4.503191797711352,-0.053620689655172304,0.35781333276506133,0.2494716061582436,11.204560092582849,0.04052148239269369,0.002388143476179087
EOG230616C00117500,2023-04-07,10:00:00,2023-06-16,10.35,10.2,10.5,117.5,70,c,1014,0.4078341838945617,0.635972470129964,0.019364312322522892,-0.05402324218161425,1,5.103191797711352,-0.040170212765957336,0.3569739791218425,0.230138463359993,10.325681926524716,0.29330846186039283,0.015406303660313958
EOG230616C00119200,2023-04-07,10:00:00,2023-06-16,9.35,9.2,9.5,119.2,70,c,563,0.4024139107940709,0.6017798988843914,0.020067631911757644,-0.05496045135814143,9,5.803191797711355,-0.02533557046979862,0.35428897873748244,0.1839672678310754,9.38882728696794,0.16876760217763176,0.006837860603312716
EOG230616C00121000,2023-04-07,10:00:00,2023-06-16,8.35,8.2,8.5,121.0,70,c,496,0.3995158274182145,0.5646534301047446,0.020669830060882077,-0.055453846504599724,21,6.603191797711352,-0.010082644628099269,0.35122331588285705,0.10670036247473724,8.465245595767566,0.15314511253171154,0.0034939674995517955
EOG230616C00122500,2023-04-07,10:00:00,2023-06-16,7.550000000000001,7.4,7.7,122.5,70,c,193,0.3948591768495463,0.5331070013678829,0.02108802152456235,-0.055366787617477264,8,7.303191797711353,0.0022857142857143353,0.3478620395019354,0.02478793476399695,7.748705081874585,0.0607963776392624,0.00031584131790683137
EOG230616C00124200,2023-04-07,10:00:00,2023-06-16,6.75,6.6,6.9,124.2,70,c,126,0.3876953906088023,0.49723792567748504,0.021260903331210557,-0.05519792992328565,3,8.203191797711355,0.01594202898550723,0.34642788587161444,-0.07794611464773649,6.9938221226331825,0.040016289537035094,-0.0006483899977862193
EOG230616C00126000,2023-04-07,10:00:00,2023-06-16,5.949999999999999,5.8,6.1,126.0,70,c,247,0.382172180169415,0.4592377925060287,0.021306678279486846,-0.054417327256647496,3,9.203191797711352,0.030000000000000027,0.3440764028361967,-0.18409935175517436,6.258899954061579,0.07861352319155299,-0.003002067840586718
EOG230616C00127500,2023-04-07,10:00:00,2023-06-16,5.35,5.2,5.5,127.5,70,c,113,0.3807295045778685,0.4281262808298436,0.021151246123451983,-0.053526645872445044,1,10.103191797711352,0.04141176470588237,0.3428920740967447,-0.25914762153726534,5.695233143426146,0.03570252740024568,-0.0019332898032722724
EOG230616C00129200,2023-04-07,10:00:00,2023-06-16,4.75,4.6,4.9,129.2,70,c,613,0.3829378947131689,0.39416134839163064,0.020751970151167143,-0.05236005542415256,4,11.20319179771134,0.0540247678018575,0.3428273982538939,-0.31969535901614343,5.107710228077202,0.19002221115030463,-0.012938028273511096
EOG230616C00131000,2023-04-07,10:00:00,2023-06-16,4.05,3.9,4.2,131.0,70,c,213,0.3715611161855012,0.35607205962016053,0.020476679960523825,-0.049716554976597216,12,12.303191797711353,0.06702290076335882,0.33661601572569905,-0.3602353730515836,4.542089216719304,0.06515139284599789,-0.005065674133361179
EOG230616C00132500,2023-04-07,10:00:00,2023-06-16,3.65,3.5,3.8,132.5,70,c,758,0.3704200576796084,0.3290425851737888,0.019781849514011185,-0.048394803628082794,1,13.403191797711353,0.07758490566037735,0.33827528579747135,-0.36096000075186946,4.112627404756766,0.22398588862979807,-0.018063403119340838
EOG230616C00134200,2023-04-07,10:00:00,2023-06-16,3.15,3.0,3.3,134.2,70,c,541,0.3665338045787184,0.2967937447146518,0.019092518392938018,-0.04581148780898836,2,14.603191797711341,0.08926974664679577,0.33534058738866945,-0.3423861271667551,3.669102681115374,0.15429258013611052,-0.012228824556053702
EOG230616C00136000,2023-04-07,10:00:00,2023-06-16,2.725,2.6,2.85,136.0,70,c,348,0.3680835425180298,0.2662302677417072,0.018138721302740635,-0.04334154093944287,2,15.978191797711352,0.1013235294117647,0.33501639375619546,-0.30201385698324595,3.24616061630762,0.09429104973558455,-0.006938688695299983
EOG230616C00137500,2023-04-07,10:00:00,2023-06-16,2.4,2.3,2.5,137.5,70,c,141,0.3671425873943854,0.24191202524284083,0.017290313070184027,-0.041062040704692215,1,17.15319179771135,0.11112727272727274,0.33428552982150456,-0.2598670401521996,2.9277357989190103,0.03641719808366646,-0.0024190319374183043
EOG230616C00139200,2023-04-07,10:00:00,2023-06-16,2.05,1.95,2.15,139.2,70,c,170,0.3606600435952635,0.21498858559780842,0.016286882820182313,-0.03812041495362628,2,18.50319179771134,0.12198275862068964,0.33217009522165936,-0.2078434779964073,2.6013781878947153,0.041359135448586604,-0.002332687768714326
EOG230616C00141000,2023-04-07,10:00:00,2023-06-16,1.75,1.65,1.85,141.0,70,c,1049,0.3586856907781806,0.18993872877564044,0.015146230021301221,-0.035285640220833914,6,20.003191797711352,0.1331914893617021,0.33172951878035534,-0.1571846117581154,2.2925642891556075,0.2373365335888879,-0.010885711108148793
EOG230616C00142500,2023-04-07,10:00:00,2023-06-16,1.525,1.45,1.6,142.5,70,c,67,0.3587802924762489,0.17041506256850747,0.014179378238221574,-0.03284744471023715,10,21.27819179771135,0.14231578947368417,0.33106280976794045,-0.11983351045055889,2.0616312435786126,0.014191115967229433,-0.0005300591969190368
EOG230616C00144200,2023-04-07,10:00:00,2023-06-16,1.275,1.2,1.35,144.2,70,c,157,0.3592354268623381,0.14837845541828543,0.013059768355638823,-0.02970386527461133,3,22.72819179771134,0.15242718446601933,0.328323863287515,-0.08261680218117842,1.8263583741764453,0.030628073808161235,-0.0008563263796615311
EOG230616C00146000,2023-04-07,10:00:00,2023-06-16,1.075,1.0,1.15,146.0,70,c,326,0.3548201709206947,0.12915695065308652,0.011896570180081056,-0.026946707255018465,3,24.32819179771135,0.1628767123287671,0.32795603786266525,-0.0549099869907501,1.6050624555188044,0.057932721362758295,-0.0011817897816375827
EOG230616P00099200,2023-04-07,10:00:00,2023-06-16,1.4,1.35,1.45,99.2,70,p,547,0.4319162618567503,-0.11305029633916774,0.008177465988801202,-0.030553189972965633,25,24.946808202288643,-0.23205645161290311,0.43446819176193935,0.024146107939320184,0.702972345684889,-0.06681756296969953,-0.0008719784534838811
EOG230616P00101000,2023-04-07,10:00:00,2023-06-16,1.625,1.55,1.7,101.0,70,p,465,0.4211048846460859,-0.12918164489228445,0.009113007179983867,-0.03302618013129455,32,23.371808202288648,-0.21009900990099006,0.42818671788661705,0.036886031109728,0.8965378824693796,-0.06329934616525976,-0.0011323643047196756
EOG230616P00102500,2023-04-07,10:00:00,2023-06-16,1.875,1.8,1.95,102.5,70,p,880,0.4156998365271364,-0.1454316288062918,0.009925315898051679,-0.03560243220256254,4,22.121808202288648,-0.19239024390243897,0.4262440897559421,0.05218666869353511,1.0885549407968886,-0.1304702723889823,-0.003031890670067689
EOG230616P00104200,2023-04-07,10:00:00,2023-06-16,2.125,2.05,2.2,104.2,70,p,481,0.4070740819200259,-0.1629710031803011,0.010885861350118375,-0.037665137625070955,4,20.671808202288645,-0.1729366602687139,0.41899414645138233,0.07231441741281905,1.3438398562842462,-0.07821542935934842,-0.0022963667914474638
EOG230616P00106000,2023-04-07,10:00:00,2023-06-16,2.4749999999999996,2.4,2.55,106.0,70,p,167,0.4045723201954123,-0.18504678922823814,0.01190978295539935,-0.04037448704254665,12,19.22180820228865,-0.15301886792452835,0.4151409919257688,0.09998740900894273,1.6622004417508784,-0.029710152216147707,-0.001102384441943121
EOG230616P00107500,2023-04-07,10:00:00,2023-06-16,2.7750000000000004,2.7,2.85,107.5,70,p,151,0.4022206212552652,-0.20410061991400497,0.01278761066814127,-0.042275624020272407,2,18.021808202288646,-0.13693023255813963,0.41035859947420145,0.1258063250883772,1.9685930511061516,-0.028843696111891158,-0.001254153554481368
EOG230616P00109200,2023-04-07,10:00:00,2023-06-16,3.2,3.1,3.3,109.2,70,p,405,0.3941209422983303,-0.22853710203887267,0.013727930952001088,-0.04477223171357858,1,16.746808202288644,-0.11923076923076925,0.4080529231082695,0.15724302660490852,2.3643877036806935,-0.08305096214225301,-0.004204338816067238
EOG230616P00111000,2023-04-07,10:00:00,2023-06-16,3.65,3.5,3.8,111.0,70,p,1034,0.3856341844456802,-0.2548931385083053,0.01475432359843154,-0.04674416721664665,58,15.396808202288648,-0.10108108108108116,0.4027726978643949,0.18852154222306822,2.8431892963186938,-0.22788954531280975,-0.01286923739637642
EOG230616P00112500,2023-04-07,10:00:00,2023-06-16,4.05,3.9,4.2,112.5,70,p,225,0.3800615108022729,-0.27798063127564276,0.015607784931148672,-0.04808777976057321,4,14.296808202288648,-0.08640000000000003,0.3977568915083877,0.2102053910065719,3.2914796800270514,-0.0524575917511001,-0.0031224655654139063
EOG230616P00114200,2023-04-07,10:00:00,2023-06-16,4.6,4.5,4.7,114.2,70,p,867,0.3793158113133728,-0.30649900552126574,0.016442337811284347,-0.049798637709729476,9,13.146808202288645,-0.07022767075306469,0.3950350943779683,0.22351647670079636,3.855806184217073,-0.21294489001337588,-0.012793810983604272
EOG230616P00116000,2023-04-07,10:00:00,2023-06-16,5.25,5.1,5.4,116.0,70,p,674,0.3737517755293277,-0.33811140159185626,0.01721742435734086,-0.051355620007181635,1,11.996808202288648,-0.053620689655172304,0.3928174596721458,0.2193775743782489,4.5202731864328065,-0.17334552672951653,-0.00976165414208451
EOG230616P00117500,2023-04-07,10:00:00,2023-06-16,5.800000000000001,5.7,5.9,117.5,70,p,653,0.3660722285162796,-0.3649556030306922,0.017860956544879514,-0.05208265245997179,1,11.046808202288648,-0.040170212765957336,0.3891641015722136,0.20043705935493014,5.127494826179728,-0.17422178294404306,-0.008640969922167724
EOG230616P00119200,2023-04-07,10:00:00,2023-06-16,6.5,6.4,6.6,119.2,70,p,861,0.3612147084300182,-0.3964910716834691,0.01844088223457163,-0.052755035585487775,5,10.046808202288645,-0.02533557046979862,0.38640216000087907,0.1578303278658721,5.874886633202007,-0.23717527052799428,-0.008971496660052865
EOG230616P00121000,2023-04-07,10:00:00,2023-06-16,7.35,7.2,7.5,121.0,70,p,268,0.3614557514504132,-0.4306126205894767,0.018816075035843483,-0.053385102328658895,109,9.096808202288647,-0.010082644628099269,0.3858696599651148,0.09009810126212559,6.734624708967693,-0.07532660414177265,-0.00159412261292758
EOG230616P00122500,2023-04-07,10:00:00,2023-06-16,8.05,7.9,8.2,122.5,70,p,158,0.3567211021332576,-0.4593242780701168,0.019150976608983683,-0.05318105699740627,8,8.296808202288648,0.0022857142857143353,0.38281494156201645,0.022162959583945412,7.504184000879761,-0.045199389774400696,-0.000231183125586512
EOG230616P00124200,2023-04-07,10:00:00,2023-06-16,8.899999999999999,8.7,9.1,124.2,70,p,120,0.3474691606570859,-0.4921852697117757,0.019399713195866752,-0.05260448011496166,2,7.4468082022886435,0.01594202898550723,0.3796298824062708,-0.06315046934760879,8.433547488217418,-0.03477451761093042,0.0005002984050558945
EOG230616P00129200,2023-04-07,10:00:00,2023-06-16,11.9,11.7,12.1,129.2,70,p,440,0.3406966686724472,-0.5852026021831769,0.018944836934764453,-0.05004147978196549,10,5.4468082022886595,0.0540247678018575,0.3792520334416104,-0.27316599670075287,11.501101613011596,-0.12451684463407196,0.007935067111108323
EOG230616P00131000,2023-04-07,10:00:00,2023-06-16,13.1,12.9,13.3,131.0,70,p,310,0.333529553030747,-0.616661232111948,0.018513401602859858,-0.048515864478247295,12,4.846808202288647,0.06702290076335882,0.3797771846018183,-0.3116803528049904,12.718800368619775,-0.08572993112013001,0.006378850301512035
EOG230616P00136000,2023-04-07,10:00:00,2023-06-16,16.7,16.4,17.0,136.0,70,p,135,0.3217446404073989,-0.6968398023323275,0.01681764235428318,-0.04283884324747689,3,3.446808202288647,0.1013235294117647,0.3814983241340969,-0.30677845196220954,16.376537787558256,-0.03391434546524353,0.002734197675547823
EOG230616P00139200,2023-04-07,10:00:00,2023-06-16,19.35,19.1,19.6,139.2,70,p,106,0.3191116113787931,-0.7354509159906542,0.015292014268197818,-0.04023794237443212,1,2.8968082022886605,0.12198275862068964,0.3922738771346942,-0.25247454369736283,18.902101611529442,-0.024213363317689956,0.0017668299434132329
